<?xml version="1.0"?>
<!DOCTYPE RTKGEOMETRY>
<RTKThreeDCircularGeometry version="3">
    <SourceToDetectorDistance>1000</SourceToDetectorDistance>
  <Projection>
    <GantryAngle>0</GantryAngle>
    <SourceToIsocenterDistance>570</SourceToIsocenterDistance>
    <SourceOffsetX>0</SourceOffsetX>
    <ProjectionOffsetX>0</ProjectionOffsetX>
    <OutOfPlaneAngle>0</OutOfPlaneAngle>
    <Matrix>
                    -1000                   0                   0                   0
                        0               -1000                   0                   0
                        0                   0                   1                -570
    </Matrix>
  </Projection>
  <Projection>
    <GantryAngle>1</GantryAngle>
    <SourceToIsocenterDistance>570</SourceToIsocenterDistance>
    <SourceOffsetX>0</SourceOffsetX>
    <ProjectionOffsetX>1.57312726321494e-16</ProjectionOffsetX>
    <OutOfPlaneAngle>0</OutOfPlaneAngle>
    <Matrix>
        -999.847695156391                   0    17.4524064372835 8.96682540032516e-14
                        0               -1000                   0                   0
       0.0174524064372835                   0   0.999847695156391                -570
    </Matrix>
  </Projection>
  <Projection>
    <GantryAngle>2</GantryAngle>
    <SourceToIsocenterDistance>570</SourceToIsocenterDistance>
    <SourceOffsetX>0</SourceOffsetX>
    <ProjectionOffsetX>2.32940210850647e-15</ProjectionOffsetX>
    <OutOfPlaneAngle>1.27222187258541e-14</OutOfPlaneAngle>
    <Matrix>
        -999.390827019096 5.17231170894855e-31     34.899496702501 1.32775920184869e-12
      -7.74924495738926e-15               -1000 -2.21909341351155e-13                   0
        0.034899496702501 -2.22044604925031e-16   0.999390827019096                -570
    </Matrix>
  </Projection>
  <Projection>
    <GantryAngle>3</GantryAngle>
    <SourceToIsocenterDistance>570</SourceToIsocenterDistance>
    <SourceOffsetX>0</SourceOffsetX>
    <ProjectionOffsetX>-5.72574795641534e-15</ProjectionOffsetX>
    <OutOfPlaneAngle>0</OutOfPlaneAngle>
    <Matrix>
        -998.629534754574                   0    52.3359562429438 -3.26367633515674e-12
                        0               -1000                   0                   0
       0.0523359562429438                   0   0.998629534754574                -570
    </Matrix>
  </Projection>
  <Projection>
    <GantryAngle>4</GantryAngle>
    <SourceToIsocenterDistance>570</SourceToIsocenterDistance>
    <SourceOffsetX>0</SourceOffsetX>
    <ProjectionOffsetX>-6.3040683375204e-15</ProjectionOffsetX>
    <OutOfPlaneAngle>0</OutOfPlaneAngle>
    <Matrix>
        -997.564050259824                   0    69.7564737441253 -3.59331895238663e-12
                        0               -1000                   0                   0
       0.0697564737441253                   0   0.997564050259824                -570
    </Matrix>
  </Projection>
  <Projection>
    <GantryAngle>5</GantryAngle>
    <SourceToIsocenterDistance>570</SourceToIsocenterDistance>
    <SourceOffsetX>0</SourceOffsetX>
    <ProjectionOffsetX>3.57885700658336e-17</ProjectionOffsetX>
    <OutOfPlaneAngle>0</OutOfPlaneAngle>
    <Matrix>
        -996.194698091746                   0    87.1557427476582 2.03994849375251e-14
                        0               -1000                   0                   0
       0.0871557427476582                   0   0.996194698091746                -570
    </Matrix>
  </Projection>
  <Projection>
    <GantryAngle>6</GantryAngle>
    <SourceToIsocenterDistance>570</SourceToIsocenterDistance>
    <SourceOffsetX>0</SourceOffsetX>
    <ProjectionOffsetX>-2.71104858621231e-15</ProjectionOffsetX>
    <OutOfPlaneAngle>0</OutOfPlaneAngle>
    <Matrix>
        -994.521895368273                   0    104.528463267653 -1.54529769414102e-12
                        0               -1000                   0                   0
        0.104528463267653                   0   0.994521895368273                -570
    </Matrix>
  </Projection>
  <Projection>
    <GantryAngle>7</GantryAngle>
    <SourceToIsocenterDistance>570</SourceToIsocenterDistance>
    <SourceOffsetX>0</SourceOffsetX>
    <ProjectionOffsetX>1.12575283017767e-14</ProjectionOffsetX>
    <OutOfPlaneAngle>0</OutOfPlaneAngle>
    <Matrix>
        -992.546151641322                   0    121.869343405147 6.41679113201271e-12
                        0               -1000                   0                   0
        0.121869343405147                   0   0.992546151641322                -570
    </Matrix>
  </Projection>
  <Projection>
    <GantryAngle>8</GantryAngle>
    <SourceToIsocenterDistance>570</SourceToIsocenterDistance>
    <SourceOffsetX>0</SourceOffsetX>
    <ProjectionOffsetX>-9.40616319135973e-16</ProjectionOffsetX>
    <OutOfPlaneAngle>0</OutOfPlaneAngle>
    <Matrix>
         -990.26806874157                   0    139.173100960065 -5.36151301907505e-13
                        0               -1000                   0                   0
        0.139173100960065                   0    0.99026806874157                -570
    </Matrix>
  </Projection>
  <Projection>
    <GantryAngle>9</GantryAngle>
    <SourceToIsocenterDistance>570</SourceToIsocenterDistance>
    <SourceOffsetX>0</SourceOffsetX>
    <ProjectionOffsetX>1.0406517283046e-14</ProjectionOffsetX>
    <OutOfPlaneAngle>1.27222187258541e-14</OutOfPlaneAngle>
    <Matrix>
        -987.688340595138 2.31071101875947e-30    156.434465040231 5.93171485133624e-12
      -3.47354289865167e-14               -1000 -2.19310867376507e-13                   0
        0.156434465040231 -2.22044604925031e-16   0.987688340595138                -570
    </Matrix>
  </Projection>
  <Projection>
    <GantryAngle>10</GantryAngle>
    <SourceToIsocenterDistance>570</SourceToIsocenterDistance>
    <SourceOffsetX>0</SourceOffsetX>
    <ProjectionOffsetX>-2.75434529975653e-14</ProjectionOffsetX>
    <OutOfPlaneAngle>0</OutOfPlaneAngle>
    <Matrix>
        -984.807753012208                   0     173.64817766693 -1.56997682086122e-11
                        0               -1000                   0                   0
         0.17364817766693                   0   0.984807753012208                -570
    </Matrix>
  </Projection>
  <Projection>
    <GantryAngle>11</GantryAngle>
    <SourceToIsocenterDistance>570</SourceToIsocenterDistance>
    <SourceOffsetX>0</SourceOffsetX>
    <ProjectionOffsetX>-1.85527738083064e-15</ProjectionOffsetX>
    <OutOfPlaneAngle>0</OutOfPlaneAngle>
    <Matrix>
        -981.627183447664                   0    190.808995376545 -1.05750810707346e-12
                        0               -1000                   0                   0
        0.190808995376545                   0   0.981627183447664                -570
    </Matrix>
  </Projection>
  <Projection>
    <GantryAngle>12</GantryAngle>
    <SourceToIsocenterDistance>570</SourceToIsocenterDistance>
    <SourceOffsetX>0</SourceOffsetX>
    <ProjectionOffsetX>1.63706729441426e-14</ProjectionOffsetX>
    <OutOfPlaneAngle>0</OutOfPlaneAngle>
    <Matrix>
        -978.147600733806                   0    207.911690817759 9.33128357816128e-12
                        0               -1000                   0                   0
        0.207911690817759                   0   0.978147600733806                -570
    </Matrix>
  </Projection>
  <Projection>
    <GantryAngle>13</GantryAngle>
    <SourceToIsocenterDistance>570</SourceToIsocenterDistance>
    <SourceOffsetX>0</SourceOffsetX>
    <ProjectionOffsetX>1.0732700152071e-14</ProjectionOffsetX>
    <OutOfPlaneAngle>0</OutOfPlaneAngle>
    <Matrix>
        -974.370064785235                   0    224.951054343865 6.11763908668045e-12
                        0               -1000                   0                   0
        0.224951054343865                   0   0.974370064785235                -570
    </Matrix>
  </Projection>
  <Projection>
    <GantryAngle>14</GantryAngle>
    <SourceToIsocenterDistance>570</SourceToIsocenterDistance>
    <SourceOffsetX>0</SourceOffsetX>
    <ProjectionOffsetX>1.16728812442201e-14</ProjectionOffsetX>
    <OutOfPlaneAngle>0</OutOfPlaneAngle>
    <Matrix>
        -970.295726275996                   0    241.921895599668 6.65354230920544e-12
                        0               -1000                   0                   0
        0.241921895599668                   0   0.970295726275996                -570
    </Matrix>
  </Projection>
  <Projection>
    <GantryAngle>15</GantryAngle>
    <SourceToIsocenterDistance>570</SourceToIsocenterDistance>
    <SourceOffsetX>0</SourceOffsetX>
    <ProjectionOffsetX>-5.08737454190331e-15</ProjectionOffsetX>
    <OutOfPlaneAngle>0</OutOfPlaneAngle>
    <Matrix>
        -965.925826289068                   0    258.819045102521 -2.89980348888489e-12
                        0               -1000                   0                   0
        0.258819045102521                   0   0.965925826289068                -570
    </Matrix>
  </Projection>
  <Projection>
    <GantryAngle>16</GantryAngle>
    <SourceToIsocenterDistance>570</SourceToIsocenterDistance>
    <SourceOffsetX>0</SourceOffsetX>
    <ProjectionOffsetX>-1.28014577574082e-14</ProjectionOffsetX>
    <OutOfPlaneAngle>0</OutOfPlaneAngle>
    <Matrix>
        -961.261695938319                   0    275.637355816999 -7.29683092172265e-12
                        0               -1000                   0                   0
        0.275637355816999                   0   0.961261695938319                -570
    </Matrix>
  </Projection>
  <Projection>
    <GantryAngle>17</GantryAngle>
    <SourceToIsocenterDistance>570</SourceToIsocenterDistance>
    <SourceOffsetX>0</SourceOffsetX>
    <ProjectionOffsetX>-3.25950560520768e-15</ProjectionOffsetX>
    <OutOfPlaneAngle>0</OutOfPlaneAngle>
    <Matrix>
        -956.304755963035                   0    292.371704722737 -1.85791819496838e-12
                        0               -1000                   0                   0
        0.292371704722737                   0   0.956304755963035                -570
    </Matrix>
  </Projection>
  <Projection>
    <GantryAngle>18</GantryAngle>
    <SourceToIsocenterDistance>570</SourceToIsocenterDistance>
    <SourceOffsetX>0</SourceOffsetX>
    <ProjectionOffsetX>6.30745654570565e-15</ProjectionOffsetX>
    <OutOfPlaneAngle>0</OutOfPlaneAngle>
    <Matrix>
        -951.056516295154                   0    309.016994374947 3.59525023105222e-12
                        0               -1000                   0                   0
        0.309016994374947                   0   0.951056516295154                -570
    </Matrix>
  </Projection>
  <Projection>
    <GantryAngle>19</GantryAngle>
    <SourceToIsocenterDistance>570</SourceToIsocenterDistance>
    <SourceOffsetX>0</SourceOffsetX>
    <ProjectionOffsetX>-2.44094198445344e-14</ProjectionOffsetX>
    <OutOfPlaneAngle>0</OutOfPlaneAngle>
    <Matrix>
        -945.518575599317                   0    325.568154457157 -1.39133693113846e-11
                        0               -1000                   0                   0
        0.325568154457157                   0   0.945518575599317                -570
    </Matrix>
  </Projection>
  <Projection>
    <GantryAngle>20</GantryAngle>
    <SourceToIsocenterDistance>570</SourceToIsocenterDistance>
    <SourceOffsetX>0</SourceOffsetX>
    <ProjectionOffsetX>1.77852883792254e-14</ProjectionOffsetX>
    <OutOfPlaneAngle>0</OutOfPlaneAngle>
    <Matrix>
        -939.692620785908                   0    342.020143325669 1.01376143761585e-11
                        0               -1000                   0                   0
        0.342020143325669                   0   0.939692620785908                -570
    </Matrix>
  </Projection>
  <Projection>
    <GantryAngle>21</GantryAngle>
    <SourceToIsocenterDistance>570</SourceToIsocenterDistance>
    <SourceOffsetX>0</SourceOffsetX>
    <ProjectionOffsetX>8.02271923210811e-16</ProjectionOffsetX>
    <OutOfPlaneAngle>0</OutOfPlaneAngle>
    <Matrix>
        -933.580426497202                   0      358.3679495453 4.57294996230162e-13
                        0               -1000                   0                   0
          0.3583679495453                   0   0.933580426497202                -570
    </Matrix>
  </Projection>
  <Projection>
    <GantryAngle>22</GantryAngle>
    <SourceToIsocenterDistance>570</SourceToIsocenterDistance>
    <SourceOffsetX>0</SourceOffsetX>
    <ProjectionOffsetX>1.41533316843442e-14</ProjectionOffsetX>
    <OutOfPlaneAngle>1.27222187258541e-14</OutOfPlaneAngle>
    <Matrix>
        -927.183854566787 3.14267094222314e-30    374.606593415912 8.06739906007622e-12
      -8.3179373037348e-14               -1000 -2.0587617268015e-13                   0
        0.374606593415912 -2.22044604925031e-16   0.927183854566787                -570
    </Matrix>
  </Projection>
  <Projection>
    <GantryAngle>23</GantryAngle>
    <SourceToIsocenterDistance>570</SourceToIsocenterDistance>
    <SourceOffsetX>0</SourceOffsetX>
    <ProjectionOffsetX>-4.53198971028181e-14</ProjectionOffsetX>
    <OutOfPlaneAngle>0</OutOfPlaneAngle>
    <Matrix>
         -920.50485345244                   0    390.731128489274 -2.58323413486063e-11
                        0               -1000                   0                   0
        0.390731128489274                   0    0.92050485345244                -570
    </Matrix>
  </Projection>
  <Projection>
    <GantryAngle>24</GantryAngle>
    <SourceToIsocenterDistance>570</SourceToIsocenterDistance>
    <SourceOffsetX>0</SourceOffsetX>
    <ProjectionOffsetX>5.21971572532586e-14</ProjectionOffsetX>
    <OutOfPlaneAngle>0</OutOfPlaneAngle>
    <Matrix>
        -913.545457642601                   0      406.7366430758 2.97523796343574e-11
                        0               -1000                   0                   0
          0.4067366430758                   0   0.913545457642601                -570
    </Matrix>
  </Projection>
  <Projection>
    <GantryAngle>25</GantryAngle>
    <SourceToIsocenterDistance>570</SourceToIsocenterDistance>
    <SourceOffsetX>0</SourceOffsetX>
    <ProjectionOffsetX>1.76442929965846e-14</ProjectionOffsetX>
    <OutOfPlaneAngle>0</OutOfPlaneAngle>
    <Matrix>
         -906.30778703665                   0    422.618261740699 1.00572470080532e-11
                        0               -1000                   0                   0
        0.422618261740699                   0    0.90630778703665                -570
    </Matrix>
  </Projection>
  <Projection>
    <GantryAngle>26</GantryAngle>
    <SourceToIsocenterDistance>570</SourceToIsocenterDistance>
    <SourceOffsetX>0</SourceOffsetX>
    <ProjectionOffsetX>-2.39842815506671e-14</ProjectionOffsetX>
    <OutOfPlaneAngle>0</OutOfPlaneAngle>
    <Matrix>
        -898.794046299167                   0    438.371146789077 -1.36710404838802e-11
                        0               -1000                   0                   0
        0.438371146789077                   0   0.898794046299167                -570
    </Matrix>
  </Projection>
  <Projection>
    <GantryAngle>27</GantryAngle>
    <SourceToIsocenterDistance>570</SourceToIsocenterDistance>
    <SourceOffsetX>0</SourceOffsetX>
    <ProjectionOffsetX>-2.54147083248003e-14</ProjectionOffsetX>
    <OutOfPlaneAngle>360</OutOfPlaneAngle>
    <Matrix>
        -891.006524188368 5.64319886926518e-30    453.990499739547 -1.44863837451362e-11
      1.00806141154385e-13               -1000 1.97843191649031e-13                   0
        0.453990499739547 2.22044604925031e-16   0.891006524188368                -570
    </Matrix>
  </Projection>
  <Projection>
    <GantryAngle>28</GantryAngle>
    <SourceToIsocenterDistance>570</SourceToIsocenterDistance>
    <SourceOffsetX>0</SourceOffsetX>
    <ProjectionOffsetX>3.09900943489353e-14</ProjectionOffsetX>
    <OutOfPlaneAngle>0</OutOfPlaneAngle>
    <Matrix>
        -882.947592858927                   0    469.471562785891 1.76643537788931e-11
                        0               -1000                   0                   0
        0.469471562785891                   0   0.882947592858927                -570
    </Matrix>
  </Projection>
  <Projection>
    <GantryAngle>29</GantryAngle>
    <SourceToIsocenterDistance>570</SourceToIsocenterDistance>
    <SourceOffsetX>0</SourceOffsetX>
    <ProjectionOffsetX>-3.54069830597658e-15</ProjectionOffsetX>
    <OutOfPlaneAngle>0</OutOfPlaneAngle>
    <Matrix>
        -874.619707139396                   0    484.809620246337 -2.01819803440665e-12
                        0               -1000                   0                   0
        0.484809620246337                   0   0.874619707139396                -570
    </Matrix>
  </Projection>
  <Projection>
    <GantryAngle>30</GantryAngle>
    <SourceToIsocenterDistance>570</SourceToIsocenterDistance>
    <SourceOffsetX>0</SourceOffsetX>
    <ProjectionOffsetX>-7.17148487953871e-15</ProjectionOffsetX>
    <OutOfPlaneAngle>0</OutOfPlaneAngle>
    <Matrix>
        -866.025403784439                   0                 500 -4.08774638133707e-12
                        0               -1000                   0                   0
                      0.5                   0   0.866025403784439                -570
    </Matrix>
  </Projection>
  <Projection>
    <GantryAngle>31</GantryAngle>
    <SourceToIsocenterDistance>570</SourceToIsocenterDistance>
    <SourceOffsetX>0</SourceOffsetX>
    <ProjectionOffsetX>-4.33972650874474e-14</ProjectionOffsetX>
    <OutOfPlaneAngle>0</OutOfPlaneAngle>
    <Matrix>
        -857.167300702112                   0    515.038074910054 -2.4736441099845e-11
                        0               -1000                   0                   0
        0.515038074910054                   0   0.857167300702112                -570
    </Matrix>
  </Projection>
  <Projection>
    <GantryAngle>32</GantryAngle>
    <SourceToIsocenterDistance>570</SourceToIsocenterDistance>
    <SourceOffsetX>0</SourceOffsetX>
    <ProjectionOffsetX>4.34815543100833e-15</ProjectionOffsetX>
    <OutOfPlaneAngle>0</OutOfPlaneAngle>
    <Matrix>
        -848.048096156426                   0    529.919264233205 2.47844859567475e-12
                        0               -1000                   0                   0
        0.529919264233205                   0   0.848048096156426                -570
    </Matrix>
  </Projection>
  <Projection>
    <GantryAngle>33</GantryAngle>
    <SourceToIsocenterDistance>570</SourceToIsocenterDistance>
    <SourceOffsetX>0</SourceOffsetX>
    <ProjectionOffsetX>3.1106298722671e-14</ProjectionOffsetX>
    <OutOfPlaneAngle>0</OutOfPlaneAngle>
    <Matrix>
        -838.670567945424                   0    544.639035015027 1.77305902719225e-11
                        0               -1000                   0                   0
        0.544639035015027                   0   0.838670567945424                -570
    </Matrix>
  </Projection>
  <Projection>
    <GantryAngle>34</GantryAngle>
    <SourceToIsocenterDistance>570</SourceToIsocenterDistance>
    <SourceOffsetX>0</SourceOffsetX>
    <ProjectionOffsetX>-5.58845960031567e-14</ProjectionOffsetX>
    <OutOfPlaneAngle>0</OutOfPlaneAngle>
    <Matrix>
        -829.037572555042                   0    559.192903470747 -3.18542197217993e-11
                        0               -1000                   0                   0
        0.559192903470747                   0   0.829037572555042                -570
    </Matrix>
  </Projection>
  <Projection>
    <GantryAngle>35</GantryAngle>
    <SourceToIsocenterDistance>570</SourceToIsocenterDistance>
    <SourceOffsetX>0</SourceOffsetX>
    <ProjectionOffsetX>-3.0076869691114e-15</ProjectionOffsetX>
    <OutOfPlaneAngle>0</OutOfPlaneAngle>
    <Matrix>
        -819.152044288992                   0    573.576436351046 -1.7143815723935e-12
                        0               -1000                   0                   0
        0.573576436351046                   0   0.819152044288992                -570
    </Matrix>
  </Projection>
  <Projection>
    <GantryAngle>36</GantryAngle>
    <SourceToIsocenterDistance>570</SourceToIsocenterDistance>
    <SourceOffsetX>0</SourceOffsetX>
    <ProjectionOffsetX>-6.02237084534054e-15</ProjectionOffsetX>
    <OutOfPlaneAngle>0</OutOfPlaneAngle>
    <Matrix>
        -809.016994374947                   0    587.785252292473 -3.43275138184411e-12
                        0               -1000                   0                   0
        0.587785252292473                   0   0.809016994374947                -570
    </Matrix>
  </Projection>
  <Projection>
    <GantryAngle>37</GantryAngle>
    <SourceToIsocenterDistance>570</SourceToIsocenterDistance>
    <SourceOffsetX>0</SourceOffsetX>
    <ProjectionOffsetX>1.22911349850095e-14</ProjectionOffsetX>
    <OutOfPlaneAngle>0</OutOfPlaneAngle>
    <Matrix>
        -798.635510047293                   0    601.815023152048 7.00594694145544e-12
                        0               -1000                   0                   0
        0.601815023152048                   0   0.798635510047293                -570
    </Matrix>
  </Projection>
  <Projection>
    <GantryAngle>38</GantryAngle>
    <SourceToIsocenterDistance>570</SourceToIsocenterDistance>
    <SourceOffsetX>0</SourceOffsetX>
    <ProjectionOffsetX>-1.38594206708564e-14</ProjectionOffsetX>
    <OutOfPlaneAngle>0</OutOfPlaneAngle>
    <Matrix>
        -788.010753606722                   0    615.661475325658 -7.89986978238812e-12
                        0               -1000                   0                   0
        0.615661475325658                   0   0.788010753606722                -570
    </Matrix>
  </Projection>
  <Projection>
    <GantryAngle>39</GantryAngle>
    <SourceToIsocenterDistance>570</SourceToIsocenterDistance>
    <SourceOffsetX>0</SourceOffsetX>
    <ProjectionOffsetX>-3.51066490278722e-14</ProjectionOffsetX>
    <OutOfPlaneAngle>0</OutOfPlaneAngle>
    <Matrix>
        -777.145961456971                   0    629.320391049837 -2.00107899458871e-11
                        0               -1000                   0                   0
        0.629320391049837                   0   0.777145961456971                -570
    </Matrix>
  </Projection>
  <Projection>
    <GantryAngle>40</GantryAngle>
    <SourceToIsocenterDistance>570</SourceToIsocenterDistance>
    <SourceOffsetX>0</SourceOffsetX>
    <ProjectionOffsetX>5.52049774372724e-14</ProjectionOffsetX>
    <OutOfPlaneAngle>1.27222187258541e-14</OutOfPlaneAngle>
    <Matrix>
        -766.044443118978 1.22579674049544e-29    642.787609686539 3.14668371392453e-11
      -1.42727520843553e-13               -1000 -1.70096035727369e-13                   0
        0.642787609686539 -2.22044604925031e-16   0.766044443118978                -570
    </Matrix>
  </Projection>
  <Projection>
    <GantryAngle>41</GantryAngle>
    <SourceToIsocenterDistance>570</SourceToIsocenterDistance>
    <SourceOffsetX>0</SourceOffsetX>
    <ProjectionOffsetX>1.43226161843094e-14</ProjectionOffsetX>
    <OutOfPlaneAngle>0</OutOfPlaneAngle>
    <Matrix>
        -754.709580222772                   0    656.059028990507 8.16389122505638e-12
                        0               -1000                   0                   0
        0.656059028990507                   0   0.754709580222772                -570
    </Matrix>
  </Projection>
  <Projection>
    <GantryAngle>42</GantryAngle>
    <SourceToIsocenterDistance>570</SourceToIsocenterDistance>
    <SourceOffsetX>0</SourceOffsetX>
    <ProjectionOffsetX>-1.61318257690992e-14</ProjectionOffsetX>
    <OutOfPlaneAngle>0</OutOfPlaneAngle>
    <Matrix>
        -743.144825477394                   0    669.130606358858 -9.19514068838652e-12
                        0               -1000                   0                   0
        0.669130606358858                   0   0.743144825477394                -570
    </Matrix>
  </Projection>
  <Projection>
    <GantryAngle>43</GantryAngle>
    <SourceToIsocenterDistance>570</SourceToIsocenterDistance>
    <SourceOffsetX>0</SourceOffsetX>
    <ProjectionOffsetX>-5.47018359018193e-15</ProjectionOffsetX>
    <OutOfPlaneAngle>0</OutOfPlaneAngle>
    <Matrix>
         -731.35370161917                   0    681.998360062498 -3.1180046464037e-12
                        0               -1000                   0                   0
        0.681998360062498                   0    0.73135370161917                -570
    </Matrix>
  </Projection>
  <Projection>
    <GantryAngle>44</GantryAngle>
    <SourceToIsocenterDistance>570</SourceToIsocenterDistance>
    <SourceOffsetX>0</SourceOffsetX>
    <ProjectionOffsetX>-4.12937176379774e-15</ProjectionOffsetX>
    <OutOfPlaneAngle>0</OutOfPlaneAngle>
    <Matrix>
        -719.339800338651                   0    694.658370458997 -2.35374190536471e-12
                        0               -1000                   0                   0
        0.694658370458997                   0   0.719339800338651                -570
    </Matrix>
  </Projection>
  <Projection>
    <GantryAngle>45</GantryAngle>
    <SourceToIsocenterDistance>570</SourceToIsocenterDistance>
    <SourceOffsetX>0</SourceOffsetX>
    <ProjectionOffsetX>2.77315718948278e-14</ProjectionOffsetX>
    <OutOfPlaneAngle>0</OutOfPlaneAngle>
    <Matrix>
        -707.106781186548                   0    707.106781186547 1.58069959800519e-11
                        0               -1000                   0                   0
        0.707106781186547                   0   0.707106781186548                -570
    </Matrix>
  </Projection>
  <Projection>
    <GantryAngle>46</GantryAngle>
    <SourceToIsocenterDistance>570</SourceToIsocenterDistance>
    <SourceOffsetX>0</SourceOffsetX>
    <ProjectionOffsetX>2.21378583208068e-14</ProjectionOffsetX>
    <OutOfPlaneAngle>0</OutOfPlaneAngle>
    <Matrix>
        -694.658370458997                   0    719.339800338651 1.26185792428599e-11
                        0               -1000                   0                   0
        0.719339800338651                   0   0.694658370458997                -570
    </Matrix>
  </Projection>
  <Projection>
    <GantryAngle>47</GantryAngle>
    <SourceToIsocenterDistance>570</SourceToIsocenterDistance>
    <SourceOffsetX>0</SourceOffsetX>
    <ProjectionOffsetX>-8.4550283693063e-15</ProjectionOffsetX>
    <OutOfPlaneAngle>0</OutOfPlaneAngle>
    <Matrix>
        -681.998360062498                   0     731.35370161917 -4.81936617050459e-12
                        0               -1000                   0                   0
         0.73135370161917                   0   0.681998360062498                -570
    </Matrix>
  </Projection>
  <Projection>
    <GantryAngle>48</GantryAngle>
    <SourceToIsocenterDistance>570</SourceToIsocenterDistance>
    <SourceOffsetX>0</SourceOffsetX>
    <ProjectionOffsetX>2.36183629471778e-14</ProjectionOffsetX>
    <OutOfPlaneAngle>0</OutOfPlaneAngle>
    <Matrix>
        -669.130606358858                   0    743.144825477394 1.34624668798913e-11
                        0               -1000                   0                   0
        0.743144825477394                   0   0.669130606358858                -570
    </Matrix>
  </Projection>
  <Projection>
    <GantryAngle>49</GantryAngle>
    <SourceToIsocenterDistance>570</SourceToIsocenterDistance>
    <SourceOffsetX>0</SourceOffsetX>
    <ProjectionOffsetX>-9.91845731402492e-15</ProjectionOffsetX>
    <OutOfPlaneAngle>0</OutOfPlaneAngle>
    <Matrix>
        -656.059028990507                   0    754.709580222772 -5.6535206689942e-12
                        0               -1000                   0                   0
        0.754709580222772                   0   0.656059028990507                -570
    </Matrix>
  </Projection>
  <Projection>
    <GantryAngle>50</GantryAngle>
    <SourceToIsocenterDistance>570</SourceToIsocenterDistance>
    <SourceOffsetX>0</SourceOffsetX>
    <ProjectionOffsetX>-2.74856574387122e-14</ProjectionOffsetX>
    <OutOfPlaneAngle>0</OutOfPlaneAngle>
    <Matrix>
        -642.787609686539                   0    766.044443118978 -1.56668247400659e-11
                        0               -1000                   0                   0
        0.766044443118978                   0   0.642787609686539                -570
    </Matrix>
  </Projection>
  <Projection>
    <GantryAngle>51</GantryAngle>
    <SourceToIsocenterDistance>570</SourceToIsocenterDistance>
    <SourceOffsetX>-3.65779232138245e-14</SourceOffsetX>
    <ProjectionOffsetX>2.75938718981483e-14</ProjectionOffsetX>
    <OutOfPlaneAngle>0</OutOfPlaneAngle>
    <Matrix>
        -629.320391049837                   0    777.145961456971 -6.46234853557053e-27
                        0               -1000                   0                   0
        0.777145961456971                   0   0.629320391049837                -570
    </Matrix>
  </Projection>
  <Projection>
    <GantryAngle>52</GantryAngle>
    <SourceToIsocenterDistance>570</SourceToIsocenterDistance>
    <SourceOffsetX>0</SourceOffsetX>
    <ProjectionOffsetX>1.0195464295418e-14</ProjectionOffsetX>
    <OutOfPlaneAngle>1.27222187258541e-14</OutOfPlaneAngle>
    <Matrix>
        -615.661475325658 2.26384784150335e-30    788.010753606722 5.81141464838826e-12
      -1.74973536461281e-13               -1000 -1.36704309056248e-13                   0
        0.788010753606722 -2.22044604925031e-16   0.615661475325658                -570
    </Matrix>
  </Projection>
  <Projection>
    <GantryAngle>53</GantryAngle>
    <SourceToIsocenterDistance>570</SourceToIsocenterDistance>
    <SourceOffsetX>0</SourceOffsetX>
    <ProjectionOffsetX>4.33723606993779e-15</ProjectionOffsetX>
